Time(s) Pressure(mBar)
36.621000 15.922182 
36.621500 12.653324 
36.622000 10.649282 
36.622500 9.326968 
36.623000 8.413167 
36.623500 7.763231 
36.624000 7.298339 
36.624500 6.957573 
36.625000 6.693787 
36.625500 6.491750 
36.626000 6.337086 
36.626500 6.217634 
36.627000 6.122760 
36.627500 6.048496 
36.628000 5.988540 
36.628500 5.941411 
36.629000 5.904260 
36.629500 5.873801 
36.630000 5.848997 
36.630500 5.827751 
36.631000 5.809464 
36.631500 5.794010 
36.632000 5.781034 
36.632500 5.770274 
36.633000 5.761082 
36.633500 5.753202 
36.634000 5.746705 
36.634500 5.741168 
36.635000 5.736435 
36.635500 5.731593 
36.636000 5.727262 
36.636500 5.723254 
36.637000 5.719833 
36.637500 5.716815 
36.638000 5.714630 
36.638500 5.712709 
36.639000 5.711004 
36.639500 5.709622 
36.640000 5.708338 
36.640500 5.707123 
36.641000 5.706015 
36.641500 5.705084 
36.642000 5.704506 
36.642500 5.703957 
36.643000 5.703546 
36.643500 5.703193 
36.644000 5.703095 
36.644500 5.703046 
36.645000 5.703164 
36.645500 5.703526 
36.646000 5.703801 
36.646500 5.704065 
36.647000 5.704300 
36.647500 5.704516 
36.648000 5.704918 
36.648500 5.705427 
36.649000 5.706084 
36.649500 5.706917 
36.650000 5.707926 
36.650500 5.708985 
36.651000 5.709975 
36.651500 5.711092 
36.652000 5.712219 
36.652500 5.713385 
36.653000 5.714532 
36.653500 5.715561 
36.654000 5.716599 
36.654500 5.717658 
36.655000 5.718677 
36.655500 5.719765 
36.656000 5.721058 
36.656500 5.722283 
36.657000 5.723557 
36.657500 5.724880 
36.658000 5.726194 
36.658500 5.727615 
36.659000 5.729085 
36.659500 5.730535 
36.660000 5.731995 
36.660500 5.733387 
36.661000 5.734876 
36.661500 5.736288 
36.662000 5.737581 
36.662500 5.738934 
36.663000 5.740335 
36.663500 5.741756 
36.664000 5.743157 
36.664500 5.744608 
36.665000 5.746058 
36.665500 5.747528 
36.666000 5.748988 
36.666500 5.750478 
36.667000 5.751948 
36.667500 5.753418 
36.668000 5.754810 
36.668500 5.756221 
36.669000 5.757671 
36.669500 5.759092 
36.670000 5.760503 
36.670500 5.761944 
36.671000 5.763316 
36.671500 5.764786 
36.672000 5.766266 
36.672500 5.767726 
36.673000 5.769265 
36.673500 5.770735 
36.674000 5.772303 
36.674500 5.773822 
36.675000 5.775311 
36.675500 5.776801 
36.676000 5.778300 
36.676500 5.779741 
36.677000 5.781191 
36.677500 5.782593 
36.678000 5.784121 
36.678500 5.785542 
36.679000 5.786983 
36.679500 5.788453 
36.680000 5.789864 
36.680500 5.791256 
36.681000 5.792608 
36.681500 5.793951 
36.682000 5.795303 
36.682500 5.796646 
36.683000 5.798008 
36.683500 5.799351 
36.684000 5.800693 
36.684500 5.802046 
36.685000 5.803447 
36.685500 5.804799 
36.686000 5.806260 
36.686500 5.807651 
36.687000 5.809092 
36.687500 5.810552 
36.688000 5.811983 
36.688500 5.813404 
36.689000 5.814835 
36.689500 5.816216 
36.690000 5.817520 
36.690500 5.818931 
36.691000 5.820244 
36.691500 5.821548 
36.692000 5.822841 
36.692500 5.824184 
36.693000 5.825507 
36.693500 5.826820 
36.694000 5.828123 
36.694500 5.829446 
36.695000 5.830701 
36.695500 5.832024 
36.696000 5.833327 
36.696500 5.834670 
36.697000 5.835934 
36.697500 5.837267 
36.698000 5.838551 
36.698500 5.839864 
36.699000 5.841108 
36.699500 5.842363 
36.700000 5.843617 
36.700500 5.844842 
36.701000 5.846067 
36.701500 5.847292 
36.702000 5.848478 
36.702500 5.849674 
36.703000 5.850879 
36.703500 5.852055 
36.704000 5.853309 
36.704500 5.854456 
36.705000 5.855652 
36.705500 5.856818 
36.706000 5.858053 
36.706500 5.859248 
36.707000 5.860493 
36.707500 5.861669 
36.708000 5.862913 
36.708500 5.864089 
36.709000 5.865305 
36.709500 5.866432 
36.710000 5.867676 
36.710500 5.868862 
36.711000 5.870077 
36.711500 5.871243 
36.712000 5.872410 
36.712500 5.873468 
36.713000 5.874615 
36.713500 5.875751 
36.714000 5.876908 
36.714500 5.878035 
36.715000 5.879201 
36.715500 5.880299 
36.716000 5.881406 
36.716500 5.882562 
36.717000 5.883660 
36.717500 5.884689 
36.718000 5.885796 
36.718500 5.886845 
36.719000 5.887933 
36.719500 5.888981 
36.720000 5.889922 
36.720500 5.890892 
36.721000 5.891882 
36.721500 5.892882 
36.722000 5.893852 
36.722500 5.894871 
36.723000 5.895851 
36.723500 5.896870 
36.724000 5.897860 
36.724500 5.898860 
36.725000 5.899859 
36.725500 5.900800 
36.726000 5.901810 
36.726500 5.902839 
36.727000 5.903828 
36.727500 5.904779 
36.728000 5.905808 
36.728500 5.906768 
36.729000 5.907739 
36.729500 5.908699 
36.730000 5.909669 
36.730500 5.910551 
36.731000 5.911551 
36.731500 5.912452 
36.732000 5.913462 
36.732500 5.914383 
36.733000 5.915383 
36.733500 5.916245 
36.734000 5.917147 
36.734500 5.917980 
36.735000 5.918881 
36.735500 5.919763 
36.736000 5.920694 
36.736500 5.921635 
36.737000 5.922537 
36.737500 5.923419 
36.738000 5.924261 
36.738500 5.925163 
36.739000 5.925957 
36.739500 5.926770 
36.740000 5.927593 
36.740500 5.928426 
36.741000 5.929201 
36.741500 5.929945 
36.742000 5.930729 
36.742500 5.931513 
36.743000 5.932297 
36.743500 5.933062 
36.744000 5.933905 
36.744500 5.934718 
36.745000 5.935541 
36.745500 5.936286 
36.746000 5.937050 
36.746500 5.937736 
36.747000 5.938471 
36.747500 5.939187 
36.748000 5.939961 
36.748500 5.940294 
36.749000 5.941362 
36.749500 5.942058 
36.750000 5.942862 
36.750500 5.943538 
36.751000 5.944302 
36.751500 5.944890 
36.752000 5.945645 
36.752500 5.946262 
36.753000 5.947027 
36.753500 5.947576 
36.754000 5.948311 
36.754500 5.948869 
36.755000 5.949634 
36.755500 5.950173 
36.756000 5.950917 
36.756500 5.951466 
36.757000 5.952152 
36.757500 5.952711 
36.758000 5.953377 
36.758500 5.953906 
36.759000 5.954543 
36.759500 5.955102 
36.760000 5.955749 
36.760500 5.956278 
36.761000 5.956837 
36.761500 5.957405 
36.762000 5.957964 
36.762500 5.958405 
36.763000 5.958973 
36.763500 5.959532 
36.764000 5.959982 
36.764500 5.960561 
36.765000 5.961060 
36.765500 5.961580 
36.766000 5.962031 
36.766500 5.962540 
36.767000 5.963040 
36.767500 5.963510 
36.768000 5.963981 
36.768500 5.964422 
36.769000 5.964902 
36.769500 5.965304 
36.770000 5.965745 
36.770500 5.966127 
36.771000 5.966597 
36.771500 5.967009 
36.772000 5.967450 
36.772500 5.967813 
36.773000 5.968214 
36.773500 5.968655 
36.774000 5.969116 
36.774500 5.969479 
36.775000 5.969871 
36.775500 5.970214 
36.776000 5.970566 
36.776500 5.970909 
36.777000 5.971321 
36.777500 5.971713 
36.778000 5.972046 
36.778500 5.972330 
36.779000 5.972673 
36.779500 5.972997 
36.780000 5.973261 
36.780500 5.973536 
36.781000 5.973810 
36.781500 5.974085 
36.782000 5.974349 
36.782500 5.974633 
36.783000 5.974937 
36.783500 5.975270 
36.784000 5.975564 
36.784500 5.975849 
36.785000 5.976143 
36.785500 5.976368 
36.786000 5.976672 
36.786500 5.976858 
36.787000 5.977113 
36.787500 5.977338 
36.788000 5.977554 
36.788500 5.977711 
36.789000 5.977965 
36.789500 5.978152 
36.790000 5.978348 
36.790500 5.978553 
36.791000 5.978789 
36.791500 5.979004 
36.792000 5.979112 
36.792500 5.979288 
36.793000 5.979465 
36.793500 5.979661 
36.794000 5.979876 
36.794500 5.980033 
36.795000 5.980151 
36.795500 5.980259 
36.796000 5.980357 
36.796500 5.980484 
36.797000 5.980592 
36.797500 5.980749 
36.798000 5.980856 
36.798500 5.980905 
36.799000 5.981033 
36.799500 5.981190 
36.800000 5.981248 
36.800500 5.981356 
36.801000 5.981523 
36.801500 5.981631 
36.802000 5.981699 
36.802500 5.981758 
36.803000 5.981856 
36.803500 5.981993 
36.804000 5.982111 
36.804500 5.982238 
36.805000 5.982375 
36.805500 5.982473 
36.806000 5.982562 
36.806500 5.982699 
36.807000 5.982797 
36.807500 5.982865 
36.808000 5.983003 
36.808500 5.983120 
36.809000 5.983208 
36.809500 5.983326 
36.810000 5.983414 
36.810500 5.983453 
36.811000 5.983522 
36.811500 5.983542 
36.812000 5.983640 
36.812500 5.983708 
36.813000 5.983796 
36.813500 5.983914 
36.814000 5.983934 
36.814500 5.983943 
36.815000 5.983934 
36.815500 5.984051 
36.816000 5.984110 
36.816500 5.984110 
36.817000 5.984051 
36.817500 5.984051 
36.818000 5.984012 
36.818500 5.983983 
36.819000 5.984041 
36.819500 5.984061 
36.820000 5.984110 
36.820500 5.984100 
36.821000 5.984159 
36.821500 5.984110 
36.822000 5.984169 
36.822500 5.984228 
36.823000 5.984188 
36.823500 5.984139 
36.824000 5.984139 
36.824500 5.984120 
36.825000 5.984061 
36.825500 5.984110 
36.826000 5.984061 
36.826500 5.984081 
36.827000 5.984159 
36.827500 5.984218 
36.828000 5.984198 
36.828500 5.984257 
36.829000 5.984286 
36.829500 5.984218 
36.830000 5.984159 
36.830500 5.984159 
36.831000 5.984130 
36.831500 5.984149 
36.832000 5.984169 
36.832500 5.984179 
36.833000 5.984179 
36.833500 5.984208 
36.834000 5.984257 
36.834500 5.984306 
36.835000 5.984247 
36.835500 5.984267 
36.836000 5.984286 
36.836500 5.984316 
36.837000 5.984335 
36.837500 5.984247 
36.838000 5.984335 
36.838500 5.984228 
36.839000 5.984159 
36.839500 5.983983 
36.840000 5.983924 
36.840500 5.983806 
36.841000 5.983747 
36.841500 5.983747 
36.842000 5.983669 
36.842500 5.983738 
36.843000 5.983757 
36.843500 5.983796 
36.844000 5.983816 
36.844500 5.983718 
36.845000 5.983757 
36.845500 5.983796 
36.846000 5.983796 
36.846500 5.983787 
36.847000 5.983855 
36.847500 5.983885 
36.848000 5.983757 
36.848500 5.983806 
36.849000 5.983728 
36.849500 5.983816 
36.850000 5.983845 
36.850500 5.983845 
36.851000 5.983708 
36.851500 5.983816 
36.852000 5.983698 
36.852500 5.983757 
36.853000 5.983718 
36.853500 5.983689 
36.854000 5.983571 
36.854500 5.983473 
36.855000 5.983512 
36.855500 5.983502 
36.856000 5.983591 
36.856500 5.983551 
36.857000 5.983551 
36.857500 5.983542 
36.858000 5.983542 
36.858500 5.983493 
36.859000 5.983473 
36.859500 5.983591 
36.860000 5.983551 
36.860500 5.983502 
36.861000 5.983493 
36.861500 5.983493 
36.862000 5.983493 
36.862500 5.983493 
36.863000 5.983522 
36.863500 5.983532 
36.864000 5.983483 
36.864500 5.983385 
36.865000 5.983306 
36.865500 5.983395 
36.866000 5.983502 
36.866500 5.983453 
36.867000 5.983453 
36.867500 5.983424 
36.868000 5.983326 
36.868500 5.983287 
36.869000 5.983150 
36.869500 5.983287 
36.870000 5.983316 
36.870500 5.983257 
36.871000 5.983140 
36.871500 5.983052 
36.872000 5.983110 
36.872500 5.983052 
36.873000 5.983101 
36.873500 5.983071 
36.874000 5.982963 
36.874500 5.982856 
36.875000 5.982767 
36.875500 5.982709 
36.876000 5.982895 
36.876500 5.983052 
36.877000 5.983071 
36.877500 5.983071 
36.878000 5.982973 
36.878500 5.983179 
36.879000 5.983326 
36.879500 5.983306 
36.880000 5.983346 
36.880500 5.983434 
36.881000 5.983571 
36.881500 5.983630 
36.882000 5.983836 
36.882500 5.983973 
36.883000 5.984041 
36.883500 5.984081 
36.884000 5.984149 
36.884500 5.984375 
36.885000 5.984531 
36.885500 5.984669 
36.886000 5.984796 
36.886500 5.984953 
36.887000 5.985129 
36.887500 5.985247 
36.888000 5.985374 
36.888500 5.985462 
36.889000 5.985570 
36.889500 5.985766 
36.890000 5.985796 
36.890500 5.985903 
36.891000 5.985982 
36.891500 5.986001 
36.892000 5.985982 
36.892500 5.985992 
36.893000 5.985903 
36.893500 5.986070 
36.894000 5.986276 
36.894500 5.986354 
36.895000 5.986560 
36.895500 5.986540 
36.896000 5.985688 
36.896500 5.986707 
36.897000 5.986589 
36.897500 5.986697 
36.898000 5.987021 
36.898500 5.987138 
36.899000 5.986903 
36.899500 5.986991 
36.900000 5.987001 
36.900500 5.986981 
36.901000 5.986952 
36.901500 5.986923 
36.902000 5.987089 
36.902500 5.986864 
36.903000 5.986874 
36.903500 5.986874 
36.904000 5.986805 
36.904500 5.986746 
36.905000 5.986629 
36.905500 5.986599 
36.906000 5.986286 
36.906500 5.986168 
36.907000 5.985992 
36.907500 5.985923 
36.908000 5.985668 
36.908500 5.985521 
36.909000 5.984972 
36.909500 5.984688 
36.910000 5.984482 
36.910500 5.984159 
36.911000 5.983444 
36.911500 5.982973 
36.912000 5.982444 
36.912500 5.981836 
36.913000 5.981062 
36.913500 5.980533 
36.914000 5.979955 
36.914500 5.979073 
36.915000 5.978181 
36.915500 5.977260 
36.916000 5.976417 
36.916500 5.975574 
36.917000 5.974663 
36.917500 5.973448 
36.918000 5.972232 
36.918500 5.971272 
36.919000 5.969978 
36.919500 5.969077 
36.920000 5.967519 
36.920500 5.966127 
36.921000 5.965088 
36.921500 5.963755 
36.922000 5.962374 
36.922500 5.960982 
36.923000 5.959639 
36.923500 5.958277 
36.924000 5.956856 
36.924500 5.955318 
36.925000 5.953573 
36.925500 5.951907 
36.926000 5.950261 
36.926500 5.948399 
36.927000 5.946498 
36.927500 5.944626 
36.928000 5.942421 
36.928500 5.940353 
36.929000 5.938432 
36.929500 5.936482 
36.930000 5.934365 
36.930500 5.932219 
36.931000 5.930386 
36.931500 5.928142 
36.932000 5.925976 
36.932500 5.923860 
36.933000 5.921498 
36.933500 5.919107 
36.934000 5.916666 
36.934500 5.914305 
36.935000 5.911629 
36.935500 5.909297 
36.936000 5.906563 
36.936500 5.903917 
36.937000 5.901398 
36.937500 5.899046 
36.938000 5.896449 
36.938500 5.893568 
36.939000 5.890696 
36.939500 5.887668 
36.940000 5.884562 
36.940500 5.881357 
36.941000 5.878172 
36.941500 5.874791 
36.942000 5.871273 
36.942500 5.867735 
36.943000 5.864256 
36.943500 5.860944 
36.944000 5.857837 
36.944500 5.854280 
36.945000 5.851055 
36.945500 5.847782 
36.946000 5.844303 
36.946500 5.840922 
36.947000 5.837580 
36.947500 5.834190 
36.948000 5.830681 
36.948500 5.827300 
36.949000 5.824037 
36.949500 5.820362 
36.950000 5.816834 
36.950500 5.813306 
36.951000 5.809719 
36.951500 5.806024 
36.952000 5.802389 
36.952500 5.798753 
36.953000 5.794470 
36.953500 5.790482 
36.954000 5.786454 
36.954500 5.782250 
36.955000 5.778104 
36.955500 5.774027 
36.956000 5.770137 
36.956500 5.765776 
36.957000 5.761552 
36.957500 5.757211 
36.958000 5.752850 
36.958500 5.748636 
36.959000 5.744304 
36.959500 5.739972 
36.960000 5.735670 
36.960500 5.731466 
36.961000 5.727448 
36.961500 5.723410 
36.962000 5.719618 
36.962500 5.715394 
36.963000 5.710798 
36.963500 5.706319 
36.964000 5.702242 
36.964500 5.698068 
36.965000 5.693844 
36.965500 5.689542 
36.966000 5.684926 
36.966500 5.680545 
36.967000 5.676027 
36.967500 5.671519 
36.968000 5.666835 
36.968500 5.662258 
36.969000 5.657858 
36.969500 5.653478 
36.970000 5.649273 
36.970500 5.644217 
36.971000 5.639140 
36.971500 5.634926 
36.972000 5.630389 
36.972500 5.625508 
36.973000 5.620942 
36.973500 5.615797 
36.974000 5.610769 
36.974500 5.606065 
36.975000 5.601097 
36.975500 5.596020 
36.976000 5.590954 
36.976500 5.585975 
36.977000 5.581369 
36.977500 5.577018 
36.978000 5.572157 
36.978500 5.566924 
36.979000 5.561936 
36.979500 5.557310 
36.980000 5.552459 
36.980500 5.547618 
36.981000 5.542493 
36.981500 5.538230 
36.982000 5.533663 
36.982500 5.529449 
36.983000 5.524706 
36.983500 5.519570 
36.984000 5.514798 
36.984500 5.510633 
36.985000 5.506105 
36.985500 5.501391 
36.986000 5.496462 
36.986500 5.490886 
36.987000 5.485437 
36.987500 5.480449 
36.988000 5.475706 
36.988500 5.470590 
36.989000 5.465494 
36.989500 5.460574 
36.990000 5.455292 
36.990500 5.450088 
36.991000 5.444747 
36.991500 5.439828 
36.992000 5.434751 
36.992500 5.429303 
36.993000 5.424275 
36.993500 5.419267 
36.994000 5.414759 
36.994500 5.410212 
36.995000 5.405312 
36.995500 5.400275 
36.996000 5.395532 
36.996500 5.390749 
36.997000 5.385683 
36.997500 5.381077 
36.998000 5.376726 
36.998500 5.372149 
36.999000 5.367229 
36.999500 5.362594 
37.000000 5.357831 
37.000500 5.353088 
37.001000 5.348580 
37.001500 5.344131 
37.002000 5.339691 
37.002500 5.334948 
37.003000 5.329950 
37.003500 5.324893 
37.004000 5.319827 
37.004500 5.314790 
37.005000 5.309164 
37.005500 5.304088 
37.006000 5.298904 
37.006500 5.293886 
37.007000 5.289035 
37.007500 5.283988 
37.008000 5.280294 
37.008500 5.274492 
37.009000 5.269210 
37.009500 5.264467 
37.010000 5.260037 
37.010500 5.255588 
37.011000 5.250688 
37.011500 5.245660 
37.012000 5.240770 
37.012500 5.236576 
37.013000 5.232068 
37.013500 5.227315 
37.014000 5.222699 
37.014500 5.218191 
37.015000 5.213075 
37.015500 5.208440 
37.016000 5.203442 
37.016500 5.198277 
37.017000 5.192966 
37.017500 5.188624 
37.018000 5.184293 
37.018500 5.180245 
37.019000 5.176061 
37.019500 5.171994 
37.020000 5.167525 
37.020500 5.163389 
37.021000 5.159215 
37.021500 5.154687 
37.022000 5.150189 
37.022500 5.146181 
37.023000 5.142280 
37.023500 5.138086 
37.024000 5.133833 
37.024500 5.129383 
37.025000 5.125532 
37.025500 5.121602 
37.026000 5.117408 
37.026500 5.113017 
37.027000 5.108421 
37.027500 5.104286 
37.028000 5.099993 
37.028500 5.095505 
37.029000 5.091340 
37.029500 5.087518 
37.030000 5.083186 
37.030500 5.078306 
37.031000 5.073572 
37.031500 5.069505 
37.032000 5.065605 
37.032500 5.061901 
37.033000 5.057883 
37.033500 5.053835 
37.034000 5.049739 
37.034500 5.045603 
37.035000 5.041144 
37.035500 5.036989 
37.036000 5.033049 
37.036500 5.029022 
37.037000 5.025092 
37.037500 5.020848 
37.038000 5.016713 
37.038500 5.012822 
37.039000 5.008559 
37.039500 5.004463 
37.040000 5.000249 
37.040500 4.996456 
37.041000 4.992683 
37.041500 4.988567 
37.042000 4.984314 
37.042500 4.979747 
37.043000 4.975494 
37.043500 4.971339 
37.044000 4.967046 
37.044500 4.962578 
37.045000 4.958334 
37.045500 4.954081 
37.046000 4.949651 
37.046500 4.945731 
37.047000 4.941370 
37.047500 4.936921 
37.048000 4.932639 
37.048500 4.928552 
37.049000 4.924093 
37.049500 4.919732 
37.050000 4.915155 
37.050500 4.910873 
37.051000 4.906767 
37.051500 4.902298 
37.052000 4.897633 
37.052500 4.893135 
37.053000 4.888833 
37.053500 4.884334 
37.054000 4.880101 
37.054500 4.875142 
37.055000 4.870075 
37.055500 4.865117 
37.056000 4.861187 
37.056500 4.856581 
37.057000 4.852347 
37.057500 4.848300 
37.058000 4.844056 
37.058500 4.839901 
37.059000 4.835472 
37.059500 4.831267 
37.060000 4.827004 
37.060500 4.822506 
37.061000 4.818331 
37.061500 4.814235 
37.062000 4.810197 
37.062500 4.805199 
37.063000 4.800819 
37.063500 4.796526 
37.064000 4.792312 
37.064500 4.787795 
37.065000 4.783620 
37.065500 4.779357 
37.066000 4.775055 
37.066500 4.770703 
37.067000 4.766440 
37.067500 4.761991 
37.068000 4.757895 
37.068500 4.753691 
37.069000 4.749437 
37.069500 4.745223 
37.070000 4.740951 
37.070500 4.737080 
37.071000 4.732836 
37.071500 4.728681 
37.072000 4.723859 
37.072500 4.718861 
37.073000 4.714873 
37.073500 4.710561 
37.074000 4.706210 
37.074500 4.702084 
37.075000 4.697586 
37.075500 4.693323 
37.076000 4.689207 
37.076500 4.685120 
37.077000 4.681024 
37.077500 4.677192 
37.078000 4.672831 
37.078500 4.668323 
37.079000 4.664021 
37.079500 4.660159 
37.080000 4.655730 
37.080500 4.651751 
37.081000 4.648243 
37.081500 4.644107 
37.082000 4.639883 
37.082500 4.635806 
37.083000 4.631573 
37.083500 4.627055 
37.084000 4.622684 
37.084500 4.618460 
37.085000 4.614246 
37.085500 4.609503 
37.086000 4.605309 
37.086500 4.601075 
37.087000 4.596538 
37.087500 4.592049 
37.088000 4.587443 
37.088500 4.582857 
37.089000 4.578643 
37.089500 4.574429 
37.090000 4.569941 
37.090500 4.565521 
37.091000 4.561111 
37.091500 4.556907 
37.092000 4.552516 
37.092500 4.548185 
37.093000 4.543628 
37.093500 4.539178 
37.094000 4.534896 
37.094500 4.530741 
37.095000 4.526615 
37.095500 4.522342 
37.096000 4.517942 
37.096500 4.513796 
37.097000 4.509641 
37.097500 4.505535 
37.098000 4.501370 
37.098500 4.496950 
37.099000 4.492824 
37.099500 4.488493 
37.100000 4.483965 
37.100500 4.479575 
37.101000 4.475518 
37.101500 4.471568 
37.102000 4.467511 
37.102500 4.463317 
37.103000 4.459005 
37.103500 4.454359 
37.104000 4.450234 
37.104500 4.445833 
37.105000 4.441708 
37.105500 4.437494 
37.106000 4.433250 
37.106500 4.428752 
37.107000 4.424587 
37.107500 4.420246 
37.108000 4.416002 
37.108500 4.411690 
37.109000 4.407535 
37.109500 4.403399 
37.110000 4.399303 
37.110500 4.395011 
37.111000 4.390601 
37.111500 4.386357 
37.112000 4.382016 
37.112500 4.377812 
37.113000 4.373578 
37.113500 4.369403 
37.114000 4.365072 
37.114500 4.360779 
37.115000 4.356252 
37.115500 4.351851 
37.116000 4.347363 
37.116500 4.342649 
37.117000 4.338308 
37.117500 4.333800 
37.118000 4.329605 
37.118500 4.325254 
37.119000 4.321060 
37.119500 4.316699 
