"Wave Height"
"Channel 110, WAVE_HT " 
"01/01/95" "15:20:09"
"Frequency   2.1333 Hz" 
"m"
    1     .21853E+02  
    2     .22223E+02  
    3     .23100E+02  
    4     .23827E+02  
    5     .24367E+02  
    6     .24464E+02  
    7     .24895E+02  
    8     .25645E+02  
    9     .26450E+02  
   10     .27420E+02  
   11     .28420E+02  
   12     .29340E+02  
   13     .30451E+02  
   14     .31417E+02  
   15     .32178E+02  
   16     .32649E+02  
   17     .32468E+02  
   18     .32094E+02  
   19     .31362E+02  
   20     .30446E+02  
   21     .29150E+02  
   22     .27599E+02  
   23     .25734E+02  
   24     .23731E+02  
   25     .21637E+02  
   26     .19936E+02  
   27     .18922E+02  
   28     .17754E+02  
   29     .17948E+02  
   30     .19364E+02  
   31     .20670E+02  
   32     .21973E+02  
   33     .23166E+02  
   34     .24196E+02  
   35     .25364E+02  
   36     .26282E+02  
   37     .27046E+02  
   38     .27656E+02  
   39     .28190E+02  
   40     .28753E+02  
   41     .29268E+02  
   42     .29683E+02  
   43     .30281E+02  
   44     .30626E+02  
   45     .30789E+02  
   46     .30739E+02  
   47     .30563E+02  
   48     .30015E+02  
   49     .29437E+02  
   50     .28546E+02  
   51     .27713E+02  
   52     .26564E+02  
   53     .25552E+02  
   54     .24538E+02  
   55     .23700E+02  
   56     .22804E+02  
   57     .22146E+02  
   58     .21789E+02  
   59     .21749E+02  
   60     .21879E+02  
   61     .21681E+02  
   62     .21480E+02  
   63     .21740E+02  
   64     .22382E+02  
   65     .22907E+02  
   66     .23484E+02  
   67     .24231E+02  
   68     .25200E+02  
   69     .26312E+02  
   70     .27629E+02  
   71     .28388E+02  
   72     .28756E+02  
   73     .28836E+02  
   74     .28900E+02  
   75     .28862E+02  
   76     .29402E+02  
   77     .29933E+02  
   78     .30434E+02  
   79     .30552E+02  
   80     .30307E+02  
   81     .29719E+02  
   82     .28905E+02  
   83     .27443E+02  
   84     .25918E+02  
   85     .24907E+02  
   86     .24283E+02  
   87     .23919E+02  
   88     .23824E+02  
   89     .23903E+02  
   90     .23804E+02  
   91     .23567E+02  
   92     .23353E+02  
   93     .23073E+02  
   94     .22359E+02  
   95     .21502E+02  
   96     .21376E+02  
   97     .21876E+02  
   98     .22576E+02  
   99     .23441E+02  
  100     .24281E+02  
  101     .25252E+02  
  102     .26148E+02  
  103     .26817E+02  
  104     .27481E+02  
  105     .28089E+02  
  106     .28735E+02  
  107     .29222E+02  
  108     .29385E+02  
  109     .29245E+02  
  110     .29009E+02  
  111     .28583E+02  
  112     .28241E+02  
  113     .27955E+02  
  114     .27760E+02  
  115     .27682E+02  
  116     .27704E+02  
  117     .27687E+02  
  118     .27556E+02  
  119     .27219E+02  
  120     .26794E+02  
  121     .26335E+02  
  122     .25734E+02  
  123     .25051E+02  
  124     .23998E+02  
  125     .23125E+02  
  126     .22517E+02  
  127     .22046E+02  
  128     .21750E+02  
  129     .21634E+02  
  130     .21680E+02  
  131     .21711E+02  
  132     .22122E+02  
  133     .22945E+02  
  134     .24067E+02  
  135     .25325E+02  
  136     .26635E+02  
  137     .27863E+02  
  138     .28851E+02  
  139     .29663E+02  
  140     .29959E+02  
  141     .30017E+02  
  142     .29584E+02  
  143     .28751E+02  
  144     .27741E+02  
  145     .26616E+02  
  146     .25355E+02  
  147     .24674E+02  
  148     .24642E+02  
  149     .25096E+02  
  150     .25742E+02  
  151     .26345E+02  
  152     .26696E+02  
  153     .27099E+02  
  154     .27176E+02  
  155     .27153E+02  
  156     .27181E+02  
  157     .26938E+02  
  158     .26509E+02  
  159     .25970E+02  
  160     .25478E+02  
  161     .25121E+02  
  162     .24874E+02  
  163     .24243E+02  
  164     .23375E+02  
  165     .22458E+02  
  166     .21674E+02  
  167     .21206E+02  
  168     .21269E+02  
  169     .22522E+02  
  170     .23576E+02  
  171     .24558E+02  
  172     .25542E+02  
  173     .26455E+02  
  174     .27805E+02  
  175     .28754E+02  
  176     .29492E+02  
  177     .29830E+02  
  178     .29960E+02  
  179     .29830E+02  
  180     .29617E+02  
  181     .29092E+02  
  182     .28435E+02  
  183     .27874E+02  
  184     .27297E+02  
  185     .26728E+02  
  186     .26273E+02  
  187     .25667E+02  
  188     .25320E+02  
  189     .24992E+02  
  190     .24992E+02  
  191     .24998E+02  
  192     .24508E+02  
  193     .23659E+02  
  194     .22682E+02  
  195     .21609E+02  
  196     .20930E+02  
  197     .20796E+02  
  198     .21028E+02  
  199     .23125E+02  
  200     .25329E+02  
  201     .26914E+02  
  202     .28251E+02  
  203     .29382E+02  
  204     .30344E+02  
  205     .31095E+02  
  206     .31497E+02  
  207     .31192E+02  
  208     .30540E+02  
  209     .29377E+02  
  210     .27958E+02  
  211     .26297E+02  
  212     .24631E+02  
  213     .22979E+02  
  214     .21603E+02  
  215     .20802E+02  
  216     .20979E+02  
  217     .21530E+02  
  218     .22008E+02  
  219     .22375E+02  
  220     .22487E+02  
  221     .22803E+02  
  222     .23553E+02  
  223     .24870E+02  
  224     .26332E+02  
  225     .27653E+02  
  226     .28813E+02  
  227     .29660E+02  
  228     .30239E+02  
  229     .30500E+02  
  230     .30583E+02  
  231     .30170E+02  
  232     .29564E+02  
  233     .29193E+02  
  234     .28854E+02  
  235     .28437E+02  
  236     .27552E+02  
  237     .26204E+02  
  238     .24663E+02  
  239     .23419E+02  
  240     .22433E+02  
  241     .21747E+02  
  242     .21218E+02  
  243     .20936E+02  
  244     .20942E+02  
  245     .21390E+02  
  246     .21810E+02  
  247     .22479E+02  
  248     .23151E+02  
  249     .23913E+02  
  250     .24818E+02  
  251     .25799E+02  
  252     .26693E+02  
  253     .27813E+02  
  254     .28920E+02  
  255     .29768E+02  
  256     .30206E+02  
  257     .30414E+02  
  258     .30252E+02  
  259     .29640E+02  
  260     .29170E+02  
  261     .28943E+02  
  262     .28696E+02  
  263     .28475E+02  
  264     .28026E+02  
  265     .27283E+02  
  266     .26375E+02  
  267     .25272E+02  
  268     .24421E+02  
  269     .23866E+02  
  270     .23307E+02  
  271     .22741E+02  
  272     .22336E+02  
  273     .22215E+02  
  274     .22761E+02  
  275     .23711E+02  
  276     .24670E+02  
  277     .25216E+02  
  278     .25728E+02  
  279     .26139E+02  
  280     .26104E+02  
  281     .25748E+02  
  282     .25486E+02  
  283     .25461E+02  
  284     .25705E+02  
  285     .25848E+02  
  286     .25766E+02  
  287     .25667E+02  
  288     .25687E+02  
  289     .25668E+02  
  290     .25772E+02  
  291     .25921E+02  
  292     .26035E+02  
  293     .26349E+02  
  294     .26530E+02  
  295     .26774E+02  
  296     .26748E+02  
  297     .26737E+02  
  298     .26800E+02  
  299     .26924E+02  
  300     .27130E+02  
  301     .27205E+02  
  302     .27425E+02  
  303     .27960E+02  
  304     .28650E+02  
  305     .29011E+02  
  306     .29058E+02  
  307     .28662E+02  
  308     .27783E+02  
  309     .26793E+02  
  310     .25611E+02  
  311     .24292E+02  
  312     .22691E+02  
  313     .21594E+02  
  314     .21043E+02  
  315     .21315E+02  
  316     .22027E+02  
  317     .22373E+02  
  318     .22275E+02  
  319     .22551E+02  
  320     .23010E+02  
  321     .23478E+02  
  322     .24185E+02  
  323     .25236E+02  
  324     .26342E+02  
  325     .27239E+02  
  326     .28052E+02  
  327     .28449E+02  
  328     .28817E+02  
  329     .29003E+02  
  330     .29215E+02  
  331     .29196E+02  
  332     .29342E+02  
  333     .29491E+02  
  334     .29552E+02  
  335     .29380E+02  
  336     .28980E+02  
  337     .28382E+02  
  338     .27609E+02  
  339     .26391E+02  
  340     .25150E+02  
  341     .24159E+02  
  342     .23244E+02  
  343     .22481E+02  
  344     .22470E+02  
  345     .22378E+02  
  346     .22548E+02  
  347     .22909E+02  
  348     .22950E+02  
  349     .23407E+02  
  350     .24421E+02  
  351     .25351E+02  
  352     .25815E+02  
  353     .26151E+02  
  354     .26472E+02  
  355     .26740E+02  
  356     .26621E+02  
  357     .26250E+02  
  358     .26036E+02  
  359     .26127E+02  
  360     .26590E+02  
  361     .26747E+02  
  362     .26998E+02  
  363     .27288E+02  
  364     .27627E+02  
  365     .27764E+02  
  366     .27691E+02  
  367     .27537E+02  
  368     .27467E+02  
  369     .27122E+02  
  370     .26701E+02  
  371     .26386E+02  
  372     .25852E+02  
  373     .25030E+02  
  374     .24010E+02  
  375     .23330E+02  
  376     .23475E+02  
  377     .23867E+02  
  378     .24436E+02  
  379     .25259E+02  
  380     .25791E+02  
  381     .25935E+02  
  382     .25730E+02  
  383     .26026E+02  
  384     .26885E+02  
  385     .27848E+02  
  386     .28236E+02  
  387     .28087E+02  
  388     .27802E+02  
  389     .27434E+02  
  390     .27049E+02  
  391     .26302E+02  
  392     .25256E+02  
  393     .23849E+02  
  394     .22194E+02  
  395     .21149E+02  
  396     .21204E+02  
  397     .22011E+02  
  398     .23157E+02  
  399     .24309E+02  
  400     .24996E+02  
  401     .25837E+02  
  402     .26747E+02  
  403     .27926E+02  
  404     .28893E+02  
  405     .29640E+02  
  406     .30117E+02  
  407     .30049E+02  
  408     .29456E+02  
  409     .28692E+02  
  410     .28208E+02  
  411     .28116E+02  
  412     .28058E+02  
  413     .27917E+02  
  414     .27607E+02  
  415     .26951E+02  
  416     .26118E+02  
  417     .25206E+02  
  418     .24585E+02  
  419     .24097E+02  
  420     .23468E+02  
  421     .23033E+02  
  422     .22758E+02  
  423     .22663E+02  
  424     .23321E+02  
  425     .24308E+02  
  426     .24740E+02  
  427     .24861E+02  
  428     .24910E+02  
  429     .24778E+02  
  430     .24835E+02  
  431     .24953E+02  
  432     .24843E+02  
  433     .24674E+02  
  434     .24688E+02  
  435     .24967E+02  
  436     .25506E+02  
  437     .26053E+02  
  438     .26733E+02  
  439     .27167E+02  
  440     .27194E+02  
  441     .27535E+02  
  442     .27917E+02  
  443     .28291E+02  
  444     .28552E+02  
  445     .28819E+02  
  446     .28888E+02  
  447     .28753E+02  
  448     .28590E+02  
  449     .28520E+02  
  450     .28524E+02  
  451     .28417E+02  
  452     .28308E+02  
  453     .27899E+02  
  454     .27380E+02  
  455     .26661E+02  
  456     .25572E+02  
  457     .24099E+02  
  458     .22700E+02  
  459     .21243E+02  
  460     .20184E+02  
  461     .19436E+02  
  462     .19299E+02  
  463     .19206E+02  
  464     .19147E+02  
  465     .19305E+02  
  466     .20669E+02  
  467     .23186E+02  
  468     .25607E+02  
  469     .27785E+02  
  470     .29643E+02  
  471     .30940E+02  
  472     .31654E+02  
  473     .31819E+02  
  474     .31809E+02  
  475     .31508E+02  
  476     .30976E+02  
  477     .30385E+02  
  478     .29761E+02  
  479     .29124E+02  
  480     .28423E+02  
  481     .27635E+02  
  482     .26645E+02  
  483     .25800E+02  
  484     .25628E+02  
  485     .25484E+02  
  486     .25515E+02  
  487     .25421E+02  
  488     .25470E+02  
  489     .24831E+02  
  490     .23312E+02  
  491     .21629E+02  
  492     .20646E+02  
  493     .20509E+02  
  494     .20986E+02  
  495     .21497E+02  
  496     .22296E+02  
  497     .23516E+02  
  498     .24522E+02  
  499     .25591E+02  
  500     .26607E+02  
  501     .27147E+02  
  502     .26687E+02  
  503     .26230E+02  
  504     .26003E+02  
  505     .26317E+02  
  506     .26745E+02  
  507     .27359E+02  
  508     .27748E+02  
  509     .28216E+02  
  510     .28463E+02  
  511     .28607E+02  
  512     .28607E+02  
  513     .28465E+02  
  514     .28291E+02  
  515     .28043E+02  
  516     .27802E+02  
  517     .27458E+02  
  518     .27119E+02  
  519     .26978E+02  
  520     .27036E+02  
  521     .27250E+02  
  522     .27469E+02  
  523     .27579E+02  
  524     .27128E+02  
  525     .26362E+02  
  526     .25062E+02  
  527     .23395E+02  
  528     .22011E+02  
  529     .21149E+02  
  530     .20798E+02  
  531     .21137E+02  
  532     .21513E+02  
  533     .21623E+02  
  534     .22085E+02  
  535     .22548E+02  
  536     .23284E+02  
  537     .23996E+02  
  538     .24051E+02  
  539     .23824E+02  
  540     .23587E+02  
  541     .23976E+02  
  542     .25061E+02  
  543     .26288E+02  
  544     .27724E+02  
  545     .29012E+02  
  546     .30035E+02  
  547     .30965E+02  
  548     .31522E+02  
  549     .31872E+02  
  550     .32137E+02  
  551     .32191E+02  
  552     .32227E+02  
  553     .32430E+02  
  554     .32430E+02  
  555     .32149E+02  
  556     .31223E+02  
  557     .30020E+02  
  558     .28481E+02  
  559     .26730E+02  
  560     .24826E+02  
  561     .21419E+02  
  562     .12608E+02  
  563     .10390E+02  
  564     .74232E+01  
  565     .10105E+02  
  566     .11316E+02  
  567     .15081E+02  
  568     .18977E+02  
  569     .22036E+02  
  570     .24248E+02  
  571     .26602E+02  
  572     .28386E+02  
  573     .29983E+02  
  574     .31275E+02  
  575     .32359E+02  
  576     .32678E+02  
  577     .32839E+02  
  578     .33008E+02  
  579     .32655E+02  
  580     .31927E+02  
  581     .31057E+02  
  582     .30161E+02  
  583     .29146E+02  
  584     .28057E+02  
  585     .26912E+02  
  586     .26003E+02  
  587     .25012E+02  
  588     .24174E+02  
  589     .23353E+02  
  590     .22646E+02  
  591     .22036E+02  
  592     .21641E+02  
  593     .21776E+02  
  594     .22545E+02  
  595     .23146E+02  
  596     .24062E+02  
  597     .24913E+02  
  598     .25576E+02  
  599     .25963E+02  
  600     .26452E+02  
  601     .26937E+02  
  602     .27389E+02  
  603     .27782E+02  
  604     .28063E+02  
  605     .28386E+02  
  606     .28463E+02  
  607     .28546E+02  
  608     .28049E+02  
  609     .27138E+02  
  610     .26087E+02  
  611     .25186E+02  
  612     .24372E+02  
  613     .23424E+02  
  614     .22708E+02  
  615     .22358E+02  
  616     .22614E+02  
  617     .23028E+02  
  618     .23605E+02  
  619     .24061E+02  
  620     .24487E+02  
  621     .25220E+02  
  622     .26088E+02  
  623     .26648E+02  
  624     .27253E+02  
  625     .27529E+02  
  626     .27544E+02  
  627     .27642E+02  
  628     .27624E+02  
  629     .27668E+02  
  630     .27658E+02  
  631     .27796E+02  
  632     .27914E+02  
  633     .27981E+02  
  634     .27842E+02  
  635     .27538E+02  
  636     .27279E+02  
  637     .26829E+02  
  638     .26464E+02  
  639     .26153E+02  
  640     .26134E+02  
  641     .26147E+02  
  642     .26069E+02  
  643     .25921E+02  
  644     .25383E+02  
  645     .24502E+02  
  646     .23674E+02  
  647     .22975E+02  
  648     .22399E+02  
  649     .22343E+02  
  650     .22893E+02  
  651     .23870E+02  
  652     .25004E+02  
  653     .26141E+02  
  654     .26668E+02  
  655     .26906E+02  
  656     .26806E+02  
  657     .26314E+02  
  658     .25653E+02  
  659     .24969E+02  
  660     .24469E+02  
  661     .24100E+02  
  662     .24153E+02  
  663     .25167E+02  
  664     .26228E+02  
  665     .27064E+02  
  666     .27583E+02  
  667     .27952E+02  
  668     .28146E+02  
  669     .28245E+02  
  670     .28362E+02  
  671     .28462E+02  
  672     .28761E+02  
  673     .28718E+02  
  674     .28478E+02  
  675     .28202E+02  
  676     .27902E+02  
  677     .27478E+02  
  678     .26906E+02  
  679     .26124E+02  
  680     .25033E+02  
  681     .23959E+02  
  682     .22930E+02  
  683     .22002E+02  
  684     .21039E+02  
  685     .20433E+02  
  686     .20525E+02  
  687     .21195E+02  
  688     .21873E+02  
  689     .22947E+02  
  690     .23979E+02  
  691     .25527E+02  
  692     .27076E+02  
  693     .28498E+02  
  694     .29521E+02  
  695     .30318E+02  
  696     .30597E+02  
  697     .30729E+02  
  698     .30196E+02  
  699     .29465E+02  
  700     .28359E+02  
  701     .27170E+02  
  702     .25874E+02  
  703     .24982E+02  
  704     .24542E+02  
  705     .24851E+02  
  706     .25226E+02  
  707     .25490E+02  
  708     .25866E+02  
  709     .25650E+02  
  710     .25153E+02  
  711     .24682E+02  
  712     .24243E+02  
  713     .23956E+02  
  714     .23788E+02  
  715     .23729E+02  
  716     .24285E+02  
  717     .25041E+02  
  718     .25676E+02  
  719     .25938E+02  
  720     .25915E+02  
  721     .25667E+02  
  722     .25642E+02  
  723     .25670E+02  
  724     .25766E+02  
  725     .25872E+02  
  726     .26157E+02  
  727     .26432E+02  
  728     .26773E+02  
  729     .27084E+02  
  730     .27509E+02  
  731     .27602E+02  
  732     .27461E+02  
  733     .27316E+02  
  734     .26918E+02  
  735     .26507E+02  
  736     .26187E+02  
  737     .25926E+02  
  738     .25461E+02  
  739     .25075E+02  
  740     .24933E+02  
  741     .24860E+02  
  742     .25041E+02  
  743     .25417E+02  
  744     .26027E+02  
  745     .26443E+02  
  746     .26470E+02  
  747     .26076E+02  
  748     .25545E+02  
  749     .25137E+02  
  750     .24840E+02  
  751     .24582E+02  
  752     .24300E+02  
  753     .24255E+02  
  754     .24478E+02  
  755     .24867E+02  
  756     .24989E+02  
  757     .25147E+02  
  758     .25412E+02  
  759     .25944E+02  
  760     .26579E+02  
  761     .27297E+02  
  762     .27785E+02  
  763     .27846E+02  
  764     .27644E+02  
  765     .27170E+02  
  766     .26803E+02  
  767     .26676E+02  
  768     .26639E+02  
  769     .26757E+02  
  770     .26687E+02  
  771     .26372E+02  
  772     .26038E+02  
  773     .25707E+02  
  774     .25846E+02  
  775     .26161E+02  
  776     .26216E+02  
  777     .26185E+02  
  778     .26070E+02  
  779     .25723E+02  
  780     .25337E+02  
  781     .24867E+02  
  782     .24739E+02  
  783     .25104E+02  
  784     .25556E+02  
  785     .26116E+02  
  786     .26561E+02  
  787     .26616E+02  
  788     .26173E+02  
  789     .25590E+02  
  790     .24748E+02  
  791     .23551E+02  
  792     .22543E+02  
  793     .21987E+02  
  794     .21938E+02  
  795     .22473E+02  
  796     .23496E+02  
  797     .24716E+02  
  798     .26033E+02  
  799     .27006E+02  
  800     .27429E+02  
  801     .27474E+02  
  802     .26987E+02  
  803     .26427E+02  
  804     .26363E+02  
  805     .26935E+02  
  806     .27980E+02  
  807     .29083E+02  
  808     .29923E+02  
  809     .30486E+02  
  810     .30634E+02  
  811     .30351E+02  
  812     .29632E+02  
  813     .28733E+02  
  814     .27653E+02  
  815     .26713E+02  
  816     .25593E+02  
  817     .24223E+02  
  818     .22941E+02  
  819     .22085E+02  
  820     .21781E+02  
  821     .21793E+02  
  822     .21546E+02  
  823     .21052E+02  
  824     .20654E+02  
  825     .20787E+02  
  826     .21953E+02  
  827     .23794E+02  
  828     .25275E+02  
  829     .26276E+02  
