Time(s) Pressure(mBar)
36.862000 5.068963 
36.863000 4.201869 
36.864000 3.707675 
36.865000 3.394310 
36.866000 3.184551 
36.867000 3.039413 
36.868000 2.936562 
36.869000 2.862376 
36.870000 2.808074 
36.871000 2.767267 
36.872000 2.736367 
36.873000 2.712798 
36.874000 2.694668 
36.875000 2.680605 
36.876000 2.669443 
36.877000 2.660466 
36.878000 2.653254 
36.879000 2.647325 
36.880000 2.642356 
36.881000 2.638122 
36.882000 2.634369 
36.883000 2.631106 
36.884000 2.628156 
36.885000 2.625451 
36.886000 2.622981 
36.887000 2.621090 
36.888000 2.618650 
36.889000 2.616602 
36.890000 2.614642 
36.891000 2.612731 
36.892000 2.610888 
36.893000 2.609114 
36.894000 2.607350 
36.895000 2.605645 
36.896000 2.603891 
36.897000 2.602186 
36.898000 2.600461 
36.899000 2.598746 
36.900000 2.597060 
36.901000 2.595385 
36.902000 2.593787 
36.903000 2.592170 
36.904000 2.590573 
36.905000 2.588995 
36.906000 2.587398 
36.907000 2.585888 
36.908000 2.584291 
36.909000 2.582645 
36.910000 2.581077 
36.911000 2.579607 
36.912000 2.578029 
36.913000 2.576441 
36.914000 2.574932 
36.915000 2.573413 
36.916000 2.571914 
36.917000 2.570424 
36.918000 2.568876 
36.919000 2.567347 
36.920000 2.565838 
36.921000 2.564387 
36.922000 2.562760 
36.923000 2.561202 
36.924000 2.559722 
36.925000 2.558203 
36.926000 2.556714 
36.927000 2.555067 
36.928000 2.553568 
36.929000 2.552029 
36.930000 2.550550 
36.931000 2.548854 
36.932000 2.547286 
36.933000 2.545679 
36.934000 2.544444 
36.935000 2.542915 
36.936000 2.541318 
36.937000 2.539750 
36.938000 2.538182 
36.939000 2.536536 
36.940000 2.534928 
36.941000 2.533272 
36.942000 2.531685 
36.943000 2.530058 
36.944000 2.528421 
36.945000 2.526794 
36.946000 2.525187 
36.947000 2.523492 
36.948000 2.521855 
36.949000 2.520179 
36.950000 2.518464 
36.951000 2.516867 
36.952000 2.515093 
36.953000 2.513486 
36.954000 2.511673 
36.955000 2.510046 
36.956000 2.508214 
36.957000 2.506450 
36.958000 2.504646 
36.959000 2.502755 
36.960000 2.501403 
36.961000 2.499933 
36.962000 2.498227 
36.963000 2.496463 
36.964000 2.494729 
36.965000 2.493014 
36.966000 2.491279 
36.967000 2.489545 
36.968000 2.487722 
36.969000 2.485948 
36.970000 2.484174 
36.971000 2.482430 
36.972000 2.480666 
36.973000 2.478872 
36.974000 2.477089 
36.975000 2.475237 
36.976000 2.473384 
36.977000 2.471542 
36.978000 2.469680 
36.979000 2.467740 
36.980000 2.465682 
36.981000 2.464221 
36.982000 2.462418 
36.983000 2.460586 
36.984000 2.458616 
36.985000 2.456989 
36.986000 2.455205 
36.987000 2.453334 
36.988000 2.451452 
36.989000 2.449688 
36.990000 2.447983 
36.991000 2.446199 
36.992000 2.444376 
36.993000 2.442465 
36.994000 2.440505 
36.995000 2.438585 
36.996000 2.436732 
36.997000 2.434831 
36.998000 2.432812 
36.999000 2.430803 
37.000000 2.428853 
37.001000 2.426923 
37.002000 2.424943 
37.003000 2.423071 
37.004000 2.420964 
37.005000 2.418965 
37.006000 2.417015 
37.007000 2.415045 
37.008000 2.413026 
37.009000 2.410978 
37.010000 2.409008 
37.011000 2.406980 
37.012000 2.404961 
37.013000 2.402883 
37.014000 2.400884 
37.015000 2.398748 
37.016000 2.396543 
37.017000 2.394396 
37.018000 2.392289 
37.019000 2.390280 
37.020000 2.388213 
37.021000 2.385890 
37.022000 2.383714 
37.023000 2.381451 
37.024000 2.379265 
37.025000 2.376943 
37.026000 2.374659 
37.027000 2.372366 
37.028000 2.370582 
37.029000 2.367662 
37.030000 2.365261 
37.031000 2.362860 
37.032000 2.360469 
37.033000 2.358097 
37.034000 2.355637 
37.035000 2.353148 
37.036000 2.350639 
37.037000 2.348170 
37.038000 2.345563 
37.039000 2.343005 
37.040000 2.340291 
37.041000 2.337694 
37.042000 2.335048 
37.043000 2.332402 
37.044000 2.329775 
37.045000 2.327070 
37.046000 2.324424 
37.047000 2.321641 
37.048000 2.318897 
37.049000 2.316016 
37.050000 2.313194 
37.051000 2.310303 
37.052000 2.307392 
37.053000 2.304442 
37.054000 2.301473 
37.055000 2.298425 
37.056000 2.295358 
37.057000 2.292320 
37.058000 2.289213 
37.059000 2.286008 
37.060000 2.282902 
37.061000 2.279697 
37.062000 2.276355 
37.063000 2.273043 
37.064000 2.269672 
37.065000 2.266222 
37.066000 2.262792 
37.067000 2.259215 
37.068000 2.255668 
37.069000 2.252100 
37.070000 2.248455 
37.071000 2.244741 
37.072000 2.241124 
37.073000 2.237322 
37.074000 2.233667 
37.075000 2.229854 
37.076000 2.226121 
37.077000 2.222299 
37.078000 2.218398 
37.079000 2.214459 
37.080000 2.210333 
37.081000 2.206364 
37.082000 2.202365 
37.083000 2.198279 
37.084000 2.194065 
37.085000 2.189949 
37.086000 2.185754 
37.087000 2.181540 
37.088000 2.177228 
37.089000 2.172818 
37.090000 2.168428 
37.091000 2.164018 
37.092000 2.159569 
37.093000 2.155071 
37.094000 2.150465 
37.095000 2.145898 
37.096000 2.141282 
37.097000 2.136607 
37.098000 2.131903 
37.099000 2.127209 
37.100000 2.122554 
37.101000 2.117733 
37.102000 2.112911 
37.103000 2.108089 
37.104000 2.103199 
37.105000 2.098113 
37.106000 2.093135 
37.107000 2.088166 
37.108000 2.083148 
37.109000 2.077974 
37.110000 2.072809 
37.111000 2.067733 
37.112000 2.062500 
37.113000 2.057257 
37.114000 2.051955 
37.115000 2.046741 
37.116000 2.041293 
37.117000 2.035834 
37.118000 2.030454 
37.119000 2.024917 
37.120000 2.019409 
37.121000 2.013902 
37.122000 2.008394 
37.123000 2.002867 
37.124000 1.997222 
37.125000 1.991548 
37.126000 1.985727 
37.127000 1.980023 
37.128000 1.974290 
37.129000 1.968606 
37.130000 1.962775 
37.131000 1.956934 
37.132000 1.951025 
37.133000 1.945106 
37.134000 1.939216 
37.135000 1.933395 
37.136000 1.927348 
37.137000 1.921252 
37.138000 1.915235 
37.139000 1.909189 
37.140000 1.903083 
37.141000 1.896948 
37.142000 1.890784 
37.143000 1.884473 
37.144000 1.878250 
37.145000 1.871860 
37.146000 1.865539 
37.147000 1.859258 
37.148000 1.852868 
37.149000 1.846439 
37.150000 1.840079 
37.151000 1.833601 
37.152000 1.827074 
37.153000 1.820636 
37.154000 1.814099 
37.155000 1.807572 
37.156000 1.800967 
37.157000 1.794333 
37.158000 1.787767 
37.159000 1.781112 
37.160000 1.774458 
37.161000 1.767794 
37.162000 1.761081 
37.163000 1.754349 
37.164000 1.747596 
37.165000 1.740893 
37.166000 1.734033 
37.167000 1.727193 
37.168000 1.720352 
37.169000 1.713424 
37.170000 1.706505 
37.171000 1.699606 
37.172000 1.692618 
37.173000 1.685631 
37.174000 1.678712 
37.175000 1.671735 
37.176000 1.664718 
37.177000 1.657642 
37.178000 1.650547 
37.179000 1.643432 
37.180000 1.636259 
37.181000 1.629163 
37.182000 1.621990 
37.183000 1.614806 
37.184000 1.607496 
37.185000 1.600302 
37.186000 1.592992 
37.187000 1.585730 
37.188000 1.578360 
37.189000 1.570971 
37.190000 1.563533 
37.191000 1.556222 
37.192000 1.548852 
37.193000 1.541512 
37.194000 1.534084 
37.195000 1.526606 
37.196000 1.519100 
37.197000 1.511612 
37.198000 1.504096 
37.199000 1.496628 
37.200000 1.489063 
37.201000 1.481448 
37.202000 1.473804 
37.203000 1.466209 
37.204000 1.458604 
37.205000 1.450970 
37.206000 1.444051 
37.207000 1.435780 
37.208000 1.427891 
37.209000 1.420139 
37.210000 1.412466 
37.211000 1.404645 
37.212000 1.396903 
37.213000 1.389034 
37.214000 1.381214 
37.215000 1.373393 
37.216000 1.365534 
37.217000 1.357723 
37.218000 1.349775 
37.219000 1.341837 
37.220000 1.333899 
37.221000 1.325912 
37.222000 1.317886 
37.223000 1.309850 
37.224000 1.301843 
37.225000 1.293827 
37.226000 1.285732 
37.227000 1.277677 
37.228000 1.269562 
37.229000 1.261428 
37.230000 1.253314 
37.231000 1.245209 
37.232000 1.237085 
37.233000 1.228990 
37.234000 1.220748 
37.235000 1.212487 
37.236000 1.204294 
37.237000 1.196082 
37.238000 1.187811 
37.239000 1.179579 
37.240000 1.171219 
37.241000 1.162899 
37.242000 1.154461 
37.243000 1.146092 
37.244000 1.137772 
37.245000 1.129393 
37.246000 1.120886 
37.247000 1.112419 
37.248000 1.103972 
37.249000 1.095446 
37.250000 1.086949 
37.251000 1.078403 
37.252000 1.069789 
37.253000 1.061185 
37.254000 1.052551 
37.255000 1.043966 
37.256000 1.035283 
37.257000 1.026571 
37.258000 1.017908 
37.259000 1.009245 
37.260000 1.000484 
37.261000 0.991722 
37.262000 0.982961 
37.263000 0.974220 
37.264000 0.965360 
37.265000 0.956501 
37.266000 0.947720 
37.267000 0.938959 
37.268000 0.930198 
37.269000 0.921427 
37.270000 0.912636 
37.271000 0.903816 
37.272000 0.894840 
37.273000 0.886059 
37.274000 0.877190 
37.275000 0.868321 
37.276000 0.859413 
37.277000 0.850465 
37.278000 0.841518 
37.279000 0.832482 
37.280000 0.823554 
37.281000 0.814558 
37.282000 0.805620 
37.283000 0.796604 
37.284000 0.787598 
37.285000 0.778602 
37.286000 0.769449 
37.287000 0.760364 
37.288000 0.751309 
37.289000 0.742195 
37.290000 0.733130 
37.291000 0.723888 
37.292000 0.714676 
37.293000 0.705523 
37.294000 0.696341 
37.295000 0.687138 
37.296000 0.677848 
37.297000 0.668567 
37.298000 0.659267 
37.299000 0.649977 
37.300000 0.640686 
37.301000 0.631386 
37.302000 0.622008 
37.303000 0.612580 
37.304000 0.603074 
37.305000 0.593735 
37.306000 0.584327 
37.307000 0.574879 
37.308000 0.565442 
37.309000 0.555936 
37.310000 0.546420 
37.311000 0.536993 
37.312000 0.527516 
37.313000 0.517981 
37.314000 0.508396 
37.315000 0.498929 
37.316000 0.489423 
37.317000 0.479947 
37.318000 0.470490 
37.319000 0.461033 
37.320000 0.451546 
37.321000 0.442050 
37.322000 0.432544 
37.323000 0.422960 
37.324000 0.413395 
37.325000 0.403909 
37.326000 0.394334 
37.327000 0.384769 
37.328000 0.375195 
37.329000 0.365630 
37.330000 0.355957 
37.331000 0.346343 
37.332000 0.336769 
37.333000 0.327194 
37.334000 0.317571 
37.335000 0.307927 
37.336000 0.299264 
37.337000 0.288729 
37.338000 0.279057 
37.339000 0.269394 
37.340000 0.259721 
37.341000 0.250049 
37.342000 0.240317 
37.343000 0.230654 
37.344000 0.220933 
37.345000 0.211123 
37.346000 0.201411 
37.347000 0.191650 
37.348000 0.181909 
37.349000 0.172168 
37.350000 0.162397 
37.351000 0.152490 
37.352000 0.142611 
37.353000 0.132743 
37.354000 0.122933 
37.355000 0.113074 
37.356000 0.103264 
37.357000 0.093464 
37.358000 0.083635 
37.359000 0.073756 
37.360000 0.063947 
37.361000 0.054039 
37.362000 0.044082 
37.363000 0.034047 
37.364000 0.024061 
37.365000 0.014114 
37.366000 0.004176 
37.367000 -0.005682 
37.368000 -0.015502 
37.369000 -0.025341 
37.370000 -0.035229 
37.371000 -0.045039 
37.372000 -0.054859 
37.373000 -0.064757 
37.374000 -0.074616 
37.375000 -0.084484 
37.376000 -0.094343 
37.377000 -0.104251 
37.378000 -0.114110 
37.379000 -0.123988 
37.380000 -0.133925 
37.381000 -0.143862 
37.382000 -0.153751 
37.383000 -0.163658 
37.384000 -0.173596 
37.385000 -0.183621 
37.386000 -0.193627 
37.387000 -0.203535 
37.388000 -0.213521 
37.389000 -0.223468 
37.390000 -0.233425 
37.391000 -0.243342 
37.392000 -0.253309 
37.393000 -0.263324 
37.394000 -0.273262 
37.395000 -0.283238 
37.396000 -0.293156 
37.397000 -0.303063 
37.398000 -0.313020 
37.399000 -0.323055 
37.400000 -0.333120 
37.401000 -0.343126 
37.402000 -0.353063 
37.403000 -0.363020 
37.404000 -0.372967 
37.405000 -0.382904 
37.406000 -0.392880 
37.407000 -0.402896 
37.408000 -0.412912 
37.409000 -0.422937 
37.410000 -0.432972 
37.411000 -0.443066 
37.412000 -0.453180 
37.413000 -0.463293 
37.414000 -0.473358 
37.415000 -0.483344 
37.416000 -0.493409 
37.417000 -0.503395 
37.418000 -0.513499 
37.419000 -0.523544 
37.420000 -0.533657 
37.421000 -0.543722 
37.422000 -0.553738 
37.423000 -0.563763 
37.424000 -0.573739 
37.425000 -0.583775 
37.426000 -0.593849 
37.427000 -0.603855 
37.428000 -0.613851 
37.429000 -0.623876 
37.430000 -0.633882 
37.431000 -0.643878 
37.432000 -0.653913 
37.433000 -0.662714 
37.434000 -0.673837 
37.435000 -0.683931 
37.436000 -0.693995 
37.437000 -0.704011 
37.438000 -0.714046 
37.439000 -0.724101 
37.440000 -0.734116 
37.441000 -0.744181 
37.442000 -0.754216 
37.443000 -0.764212 
37.444000 -0.774257 
37.445000 -0.784253 
37.446000 -0.794249 
37.447000 -0.804226 
37.448000 -0.814310 
37.449000 -0.824345 
37.450000 -0.834272 
37.451000 -0.844210 
37.452000 -0.854196 
37.453000 -0.864211 
37.454000 -0.874198 
37.455000 -0.884213 
37.456000 -0.894219 
37.457000 -0.904166 
37.458000 -0.914113 
37.459000 -0.924099 
37.460000 -0.934076 
37.461000 -0.944081 
37.462000 -0.954048 
37.463000 -0.964005 
37.464000 -0.973962 
37.465000 -0.983918 
37.466000 -0.993846 
37.467000 -1.003793 
37.468000 -1.013691 
37.469000 -1.023638 
37.470000 -1.033634 
37.471000 -1.043649 
37.472000 -1.053665 
37.473000 -1.063671 
37.474000 -1.073696 
37.475000 -1.083653 
37.476000 -1.093659 
37.477000 -1.103567 
37.478000 -1.113484 
37.479000 -1.123421 
37.480000 -1.133368 
37.481000 -1.143247 
37.482000 -1.153164 
37.483000 -1.163033 
37.484000 -1.172931 
37.485000 -1.182809 
37.486000 -1.192649 
37.487000 -1.202517 
37.488000 -1.212366 
37.489000 -1.222196 
37.490000 -1.232035 
37.491000 -1.241835 
37.492000 -1.251694 
37.493000 -1.261523 
37.494000 -1.271303 
37.495000 -1.281074 
37.496000 -1.290835 
37.497000 -1.300586 
37.498000 -1.310298 
37.499000 -1.319960 
37.500000 -1.329613 
37.501000 -1.339296 
37.502000 -1.348919 
37.503000 -1.358533 
37.504000 -1.368176 
37.505000 -1.377771 
37.506000 -1.387375 
37.507000 -1.396969 
37.508000 -1.406494 
37.509000 -1.416000 
37.510000 -1.425546 
37.511000 -1.435061 
37.512000 -1.444597 
37.513000 -1.454122 
37.514000 -1.463550 
37.515000 -1.472958 
37.516000 -1.482395 
37.517000 -1.491843 
37.518000 -1.501260 
37.519000 -1.510639 
37.520000 -1.520018 
37.521000 -1.529386 
37.522000 -1.538716 
37.523000 -1.548065 
37.524000 -1.557385 
37.525000 -1.566783 
37.526000 -1.576034 
37.527000 -1.585305 
37.528000 -1.594615 
37.529000 -1.603827 
37.530000 -1.613049 
37.531000 -1.622290 
37.532000 -1.629846 
37.533000 -1.640420 
37.534000 -1.649789 
37.535000 -1.659060 
37.536000 -1.668262 
37.537000 -1.677396 
37.538000 -1.686461 
37.539000 -1.695575 
37.540000 -1.704669 
37.541000 -1.713773 
37.542000 -1.722770 
37.543000 -1.731874 
37.544000 -1.740988 
37.545000 -1.750112 
37.546000 -1.759196 
37.547000 -1.768222 
37.548000 -1.777336 
37.549000 -1.786391 
37.550000 -1.795594 
37.551000 -1.804678 
37.552000 -1.813635 
37.553000 -1.822612 
37.554000 -1.831589 
37.555000 -1.840536 
37.556000 -1.849376 
37.557000 -1.858284 
37.558000 -1.867124 
37.559000 -1.875983 
37.560000 -1.884842 
37.561000 -1.893662 
37.562000 -1.902482 
37.563000 -1.911283 
37.564000 -1.920024 
37.565000 -1.928736 
37.566000 -1.937468 
37.567000 -1.946161 
37.568000 -1.954853 
37.569000 -1.963497 
37.570000 -1.972170 
37.571000 -1.980774 
37.572000 -1.989340 
37.573000 -1.997866 
37.574000 -2.006421 
37.575000 -2.014908 
37.576000 -2.023395 
37.577000 -2.031852 
37.578000 -2.040309 
37.579000 -2.048737 
37.580000 -2.057195 
37.581000 -2.065574 
37.582000 -2.073963 
37.583000 -2.082283 
37.584000 -2.090603 
37.585000 -2.098894 
37.586000 -2.107165 
37.587000 -2.115456 
37.588000 -2.123688 
37.589000 -2.131871 
37.590000 -2.140005 
37.591000 -2.148139 
37.592000 -2.156224 
37.593000 -2.164319 
37.594000 -2.172404 
37.595000 -2.180489 
37.596000 -2.188466 
37.597000 -2.196482 
37.598000 -2.204440 
37.599000 -2.212319 
37.600000 -2.220198 
37.601000 -2.228097 
37.602000 -2.235976 
37.603000 -2.243855 
37.604000 -2.251666 
37.605000 -2.259486 
37.606000 -2.267248 
37.607000 -2.274990 
37.608000 -2.282683 
37.609000 -2.290356 
37.610000 -2.298059 
37.611000 -2.305733 
37.612000 -2.313377 
37.613000 -2.321021 
37.614000 -2.328616 
37.615000 -2.336211 
37.616000 -2.343698 
37.617000 -2.351185 
37.618000 -2.358692 
37.619000 -2.366150 
37.620000 -2.373578 
37.621000 -2.381006 
37.622000 -2.388415 
37.623000 -2.395785 
37.624000 -2.403164 
37.625000 -2.410563 
37.626000 -2.417825 
37.627000 -2.425057 
37.628000 -2.432349 
37.629000 -2.439591 
37.630000 -2.446755 
37.631000 -2.453958 
37.632000 -2.461102 
37.633000 -2.468236 
37.634000 -2.475459 
37.635000 -2.482642 
37.636000 -2.489816 
37.637000 -2.496901 
37.638000 -2.503987 
37.639000 -2.511023 
37.640000 -2.518010 
37.641000 -2.525008 
37.642000 -2.532015 
37.643000 -2.539012 
37.644000 -2.545950 
37.645000 -2.552859 
37.646000 -2.559778 
37.647000 -2.566775 
37.648000 -2.573625 
37.649000 -2.580368 
37.650000 -2.587130 
37.651000 -2.593823 
37.652000 -2.600517 
37.653000 -2.607298 
37.654000 -2.614001 
37.655000 -2.620714 
37.656000 -2.627329 
37.657000 -2.633895 
37.658000 -2.640412 
37.659000 -2.646959 
37.660000 -2.653525 
37.661000 -2.659954 
37.662000 -2.666461 
37.663000 -2.672831 
37.664000 -2.679171 
37.665000 -2.685532 
37.666000 -2.691902 
37.667000 -2.698193 
37.668000 -2.704269 
37.669000 -2.710629 
37.670000 -2.716843 
37.671000 -2.723046 
37.672000 -2.729112 
37.673000 -2.735316 
37.674000 -2.741382 
37.675000 -2.747458 
37.676000 -2.753553 
37.677000 -2.759610 
37.678000 -2.765725 
37.679000 -2.771703 
37.680000 -2.777681 
37.681000 -2.783600 
37.682000 -2.789539 
37.683000 -2.795409 
37.684000 -2.801181 
37.685000 -2.806944 
37.686000 -2.812755 
37.687000 -2.818527 
37.688000 -2.824329 
37.689000 -2.830023 
37.690000 -2.835805 
37.691000 -2.841499 
37.692000 -2.847104 
37.693000 -2.852729 
37.694000 -2.858384 
37.695000 -2.863999 
37.696000 -2.869546 
37.697000 -2.875171 
37.698000 -2.880748 
37.699000 -2.886147 
37.700000 -2.891684 
37.701000 -2.897114 
37.702000 -2.902494 
37.703000 -2.907737 
37.704000 -2.913127 
37.705000 -2.918419 
37.706000 -2.923632 
37.707000 -2.928777 
37.708000 -2.933942 
37.709000 -2.939048 
37.710000 -2.944232 
37.711000 -2.949348 
37.712000 -2.954512 
37.713000 -2.959589 
37.714000 -2.964636 
37.715000 -2.969741 
37.716000 -2.974769 
37.717000 -2.979698 
37.718000 -2.984618 
37.719000 -2.989439 
37.720000 -2.994290 
37.721000 -2.999181 
37.722000 -3.004022 
37.723000 -3.008892 
37.724000 -3.013753 
37.725000 -3.018614 
37.726000 -3.023357 
37.727000 -3.028130 
37.728000 -3.032902 
37.729000 -3.037587 
37.730000 -3.042271 
37.731000 -3.046956 
37.732000 -3.051581 
37.733000 -3.056079 
37.734000 -3.060734 
37.735000 -3.065311 
37.736000 -3.069809 
37.737000 -3.074307 
37.738000 -3.078796 
37.739000 -3.083147 
37.740000 -3.087439 
37.741000 -3.091840 
37.742000 -3.096240 
37.743000 -3.100640 
37.744000 -3.104962 
37.745000 -3.109254 
37.746000 -3.113547 
37.747000 -3.117770 
37.748000 -3.121955 
37.749000 -3.126140 
37.750000 -3.130334 
37.751000 -3.134470 
37.752000 -3.138605 
37.753000 -3.142672 
37.754000 -3.146778 
37.755000 -3.150855 
37.756000 -3.154981 
37.757000 -3.159058 
37.758000 -3.163066 
37.759000 -3.167172 
37.760000 -3.171171 
37.761000 -3.175169 
37.762000 -3.179118 
37.763000 -3.182911 
37.764000 -3.186811 
37.765000 -3.190633 
37.766000 -3.194465 
37.767000 -3.198268 
37.768000 -3.202109 
37.769000 -3.205872 
37.770000 -3.209655 
37.771000 -3.213330 
37.772000 -3.216966 
37.773000 -3.220700 
37.774000 -3.224336 
37.775000 -3.227942 
37.776000 -3.231568 
37.777000 -3.235145 
37.778000 -3.238644 
37.779000 -3.242093 
37.780000 -3.245602 
37.781000 -3.249188 
37.782000 -3.252628 
37.783000 -3.256048 
37.784000 -3.259537 
37.785000 -3.262977 
37.786000 -3.266319 
37.787000 -3.271670 
37.788000 -3.273355 
37.789000 -3.276540 
37.790000 -3.279804 
37.791000 -3.282998 
37.792000 -3.286174 
37.793000 -3.289476 
37.794000 -3.292740 
37.795000 -3.295925 
37.796000 -3.299100 
37.797000 -3.302285 
37.798000 -3.305382 
37.799000 -3.308537 
37.800000 -3.311663 
37.801000 -3.314731 
37.802000 -3.317828 
37.803000 -3.320934 
37.804000 -3.323904 
37.805000 -3.326883 
37.806000 -3.329940 
37.807000 -3.332920 
37.808000 -3.335938 
37.809000 -3.338917 
37.810000 -3.341877 
37.811000 -3.344768 
37.812000 -3.347649 
37.813000 -3.350579 
37.814000 -3.353441 
37.815000 -3.356253 
37.816000 -3.358939 
37.817000 -3.361634 
37.818000 -3.364133 
37.819000 -3.366828 
37.820000 -3.369503 
37.821000 -3.372208 
37.822000 -3.374932 
37.823000 -3.377637 
37.824000 -3.380234 
37.825000 -3.382743 
37.826000 -3.385310 
37.827000 -3.387878 
37.828000 -3.390485 
37.829000 -3.393013 
37.830000 -3.395542 
37.831000 -3.398060 
37.832000 -3.400530 
37.833000 -3.402990 
37.834000 -3.405430 
37.835000 -3.407841 
37.836000 -3.410173 
